Time,force.x,force.y,force.z,torque.x,torque.y,torque.z
1619752750.2830017,-0.09748294860951602,0.44946197593934833,4.339194238185883,0.07847481369972226,-0.324064324684441,-0.02342560435391964
1619752750.3317473,-0.09293261715359988,0.44968620873086157,4.338821053504944,0.07763139724731438,-0.32332087289541966,-0.025483395858034497
1619752750.3826594,-0.0883221418710798,0.44996396826364105,4.337612748146057,0.07770199775695796,-0.3228282830491662,-0.02615141509748995
1619752750.4442346,-0.08356114897064866,0.45080556036569175,4.336928486824036,0.07804975509643552,-0.3227781330421567,-0.027708482041433453
1619752750.4849524,-0.07846647795163095,0.4510221118590981,4.335871160030365,0.07801693320274355,-0.3218589589372277,-0.029760825455859313
1619752750.5339842,-0.07422371452279387,0.44883882141076026,4.334691047668457,0.07847000122070308,-0.32087624561041583,-0.03106675147466361
1619752750.582377,-0.06781498834758995,0.4486888780462742,4.332963466644287,0.07892858982086182,-0.32026109799742697,-0.03307776363343001
1619752750.6342998,-0.0596482142878324,0.4493539214646072,4.332611978054047,0.07860098719596864,-0.319732066206634,-0.03322880379401148
1619752750.6885118,-0.05367212748199701,0.4502383086177707,4.331156969070435,0.08024104595184323,-0.3184183011949062,-0.030773469114899643
1619752750.7378225,-0.04797190359212457,0.45167514863930647,4.330195486545563,0.08019762873649605,-0.3172367822751403,-0.027273726424798375
1619752750.7791631,-0.040133802689909945,0.45629365820139645,4.332582116127014,0.08337568759918212,-0.3182563367486,-0.023772504066526888
1619752750.8313713,-0.03577214246019719,0.4580977095805108,4.330780744552612,0.08417222499847415,-0.3169494549185037,-0.018962772334367044
1619752750.88108,-0.031826873915791504,0.46025819848001004,4.329249262809753,0.08485517740249637,-0.31642820566892627,-0.015185781065821649
1619752750.933652,-0.026439723510146132,0.46263919015794996,4.328157663345337,0.08648095607757578,-0.3156422916054726,-0.012255368599593641
1619752750.9836674,-0.018873760779201984,0.46247167674601075,4.324937999248505,0.08631482720375061,-0.3165690736472606,-0.010380760014951224
1619752751.0334282,-0.010280737895071515,0.4671270702368021,4.323210716247559,0.08786369800567623,-0.31602566465735427,-0.01417608461469412
1619752751.0850706,-0.0027386725360155073,0.46778281496435403,4.321700394153595,0.08797016263008117,-0.3146934911608696,-0.016237703850567345
1619752751.1339054,0.005542683521360156,0.4671865713210404,4.319967329502106,0.0884142482280732,-0.3143646552413702,-0.017103591109663252
1619752751.1835206,0.013612366605252044,0.46789742330387235,4.318366169929504,0.08951483726501458,-0.3137012969702483,-0.018048667298406366
1619752751.2334554,0.020214858530163762,0.469871875167191,4.319197952747345,0.09104196667671205,-0.31163869887590406,-0.018311839623749257
1619752751.2820578,0.029008648841083062,0.4715992716166377,4.316705346107483,0.09215186595916752,-0.3111837796866894,-0.018246084140539173
1619752751.332917,0.03699949588596821,0.47389453621447086,4.315414607524872,0.09168838620185854,-0.31009193450212486,-0.013198620672822
1619752751.380904,0.047130948964059366,0.4744125444141031,4.310908198356628,0.09172616481781004,-0.31114074453711515,-0.008133983351588256
1619752751.4334507,0.0550902910962701,0.4781367622685433,4.308920085430145,0.09302709460258479,-0.31093384876847274,-0.0047015510091185445
1619752751.4831324,0.058802086110562105,0.48205282291397455,4.308931231498718,0.09459206819534305,-0.3103196632117033,-0.0037242956762015902
1619752751.5342214,0.061398881171941755,0.48440748322844507,4.307135760784149,0.09631904006004333,-0.3095977729558944,-0.013106425217390055
1619752751.582838,0.06398009236514571,0.4862760933366418,4.305648028850555,0.09717959523200986,-0.3093362948298455,-0.022032142621576788
1619752751.631057,0.059191724961996095,0.4875148159265518,4.303159117698669,0.09779340267181402,-0.3087027305364608,-0.02851424383342266
1619752751.6855094,0.05744871303409339,0.48878824660420417,4.300474464893341,0.09757500529289242,-0.3087957917153835,-0.03287854693263769
1619752751.7337937,0.0528927654850483,0.49273959485918284,4.298129618167877,0.09860812783241268,-0.30805141270160674,-0.03633326647371054
1619752751.7864466,0.04631891247406604,0.4936493492622674,4.294729053974152,0.09998798489570615,-0.30777267791330815,-0.03562591231778264
1619752751.8384569,0.03709685554921627,0.4922864298811555,4.292180776596069,0.09974089622497562,-0.3076338776946068,-0.035739186980426316
1619752751.8968072,0.030090436926186112,0.49003693696916106,4.289870500564575,0.10013979434967035,-0.3079158981144428,-0.033247154105007656
1619752751.937206,0.02434295039892194,0.48539656889826055,4.2844043374061584,0.09989396452903743,-0.30993903994560246,-0.03012081416755915
1619752751.993032,0.016071825535595427,0.4822754541179538,4.281313002109528,0.09955465197563163,-0.31061472132802015,-0.027881780292391786
1619752752.0401409,0.005151358788311494,0.4790431554451585,4.279017508029938,0.0998133981227875,-0.31080769732594493,-0.024707858107686047
1619752752.083854,-0.008470691099464897,0.47667611443758007,4.278008162975311,0.10062420248985288,-0.31122031614184387,-0.022392929383814333
1619752752.141045,-0.01976492833748461,0.47266092395320536,4.275686144828796,0.10081820964813237,-0.3118464341014624,-0.018802531548589477
1619752752.1869335,-0.033361553023159504,0.46892278703868384,4.273298978805542,0.10149819850921626,-0.3126243571937084,-0.009545140459835531
1619752752.2355144,-0.04243269193321464,0.4662477776071429,4.270858407020569,0.10264133930206298,-0.31266653403639794,-0.0016493109130859412
1619752752.2883787,-0.05139598710373043,0.45886219367221,4.266457140445709,0.10167904019355778,-0.3159505074471235,0.0038255631954968033
1619752752.341687,-0.05811701757967472,0.4567576971158386,4.264502942562103,0.10192776799201964,-0.31656961530447003,0.006033912148773669
1619752752.391126,-0.07054426209360364,0.4578053039512039,4.262020647525787,0.10342047572135926,-0.3168234227597714,0.006530042460560798
1619752752.4369028,-0.07685913207828998,0.4562106917524338,4.259011209011078,0.10313476920127868,-0.31755276650190356,0.004412807106971742
1619752752.493707,-0.07902966251015664,0.4512450328239799,4.254087209701538,0.10232956409454341,-0.3198506635427475,0.0037165286311507256
1619752752.5372643,-0.0845443920069933,0.4513254704505205,4.252958595752716,0.1027596056461334,-0.3200243875384331,0.0027878888875246047
1619752752.584752,-0.08325499813780188,0.4513502212999761,4.250374376773834,0.10225268244743352,-0.3199847117811441,0.0024895635275542782
1619752752.6342256,-0.08582899165034293,0.4492312683087587,4.247017502784729,0.1017690610885621,-0.31957002460956574,0.0024948854815959945
1619752752.6954563,-0.08539918666943909,0.4452600371874869,4.2411826848983765,0.10147275924682608,-0.3219861886650323,0.002422604904323812
1619752752.73387,-0.08575483393281699,0.44303495794862513,4.238277733325958,0.10088987231254576,-0.32207685962319377,0.00165544304609299
1619752752.7851784,-0.09116623996019364,0.43680033592879774,4.234588384628296,0.09958385467529296,-0.3198347651958465,0.000519251946210865
1619752752.836448,-0.09071176842391492,0.4352997327035666,4.231609642505646,0.09843658328056332,-0.31927129536867144,-0.0003854123216867483
1619752752.8990135,-0.08315793877221646,0.43752170886658137,4.228460431098938,0.09737926721572876,-0.31995895262807605,-0.0006933943357318659
1619752752.9363306,-0.08157910537168385,0.4354209792019427,4.225223779678345,0.09696851491928105,-0.32001835532486445,-0.0016193051831424263
1619752752.9876275,-0.07777760565035047,0.43173729099519553,4.221556544303894,0.09695243835449219,-0.32000316161662334,-0.002568240637555716
1619752753.035153,-0.07454224604874851,0.4294276173779369,4.217271625995636,0.09505741000175477,-0.31998918339610094,-0.0039970640134811344
1619752753.0864518,-0.07044696565091609,0.4264778092432022,4.214247822761536,0.093210322856903,-0.3205237236618996,-0.00546252736926079
1619752753.1328726,-0.06726123945772648,0.4240687476363778,4.210297465324402,0.09351955413818358,-0.3199709853529929,-0.006245858847200872
1619752753.1848621,-0.06337674167715011,0.42052708441890774,4.206031441688538,0.0926440238952636,-0.31944127473980194,-0.0073496355114132245
1619752753.2330565,-0.0586711194510013,0.41828476704053585,4.202360570430756,0.09162798762321478,-0.3188494015857577,-0.008383477236256001
1619752753.2907891,12.51156826617956,0.028445374720095895,-7.503877639770508,0.0,-5.125999441579765e-08,-3.4069465767169005
1619752753.3386374,1.6063012589454653,0.028411151323318506,-7.507035970687866,0.0,9.536743172944284e-09,-7.160950613222123
1619752753.387819,3.087306447582245,0.024445957765578896,-7.511852025985718,0.0,-9.536743394988889e-09,-6.603931247930527
1619752753.4308445,5.01956651037693,0.024482709984779305,-7.514323949813843,0.0,-5.960464466436832e-08,-8.063438051524162
1619752753.4877715,5.605720910873413,0.017321422061919556,-7.507187128067017,0.0,9.536743184046514e-08,-8.541226687755586
1619752753.5368302,6.6686490383529655,0.018316766567230136,-7.490570068359375,0.0,1.907348645691087e-08,-9.340304163684845
1619752753.5817482,7.579327557444573,0.018990782036781173,-7.466569662094116,0.0,6.914138794833491e-08,-10.080239778285028
1619752753.6340926,8.427512468137742,0.01880567223548857,-7.434875965118408,0.0,-3.33786012163273e-08,-10.785328732042313
1619752753.688049,9.528504767889977,0.01866776711940865,-7.395803928375244,0.0,2.1457672305658093e-08,-11.742319810462
1619752753.7361567,9.85408964319706,0.016509838652609243,-7.350790858268738,0.0,-5.006790160244634e-08,-11.898305439286233
1619752753.7846458,10.673158366875647,-0.1047097699117665,-7.301394701004028,0.0,7.390975942378475e-08,-11.562710410904886
1619752753.8325422,11.166928477945326,-0.1565212952232362,-7.246356248855591,0.0,3.33786012163273e-08,-11.108055285253524
1619752753.8865907,11.391157813401222,-0.19182669082164772,-7.161009788513184,0.0,-4.0531158429502057e-08,-10.729656260800361
1619752753.9310946,11.98194181339979,-0.25077910488843935,-7.103653430938721,0.0,-3.695487937882547e-08,-10.128499276940824
1619752753.9833705,12.087155999090673,-0.8210204688239104,-7.039811968803406,0.0,7.033348103924197e-08,-9.069753912060262
1619752754.0332227,12.536125239249468,-0.9248165751945976,-6.9713990688323975,0.0,2.0861625649182258e-08,-8.416227464424372
1619752754.087309,12.520450586348773,-1.997854934717417,-6.901083707809448,0.0,-3.6358833277461144e-08,-7.930733919502496
1619752754.137575,12.751638018845915,-2.0505823573631043,-6.825168073177338,0.0,-8.04662714237736e-09,-7.866988708617091
1619752754.1884577,12.906266237604022,-2.4627950793236493,-6.749390065670013,0.0,-6.645917871583862e-08,-7.656369112443328
1619752754.2343075,13.074001490490138,-2.5164372824069856,-6.6325273513793945,0.0,1.3858080127882033e-08,-7.542304229374826
1619752754.303917,13.21487819418922,-2.5372567929150165,-6.551780939102173,0.0,4.015862953288263e-08,-7.475813719788343
1619752754.3376088,13.331751257506237,-2.552583474582062,-6.464020133018494,0.0,-3.9003789309433046e-08,-7.436403046731279
1619752754.3814821,13.427215329954791,-2.570191679594685,-6.388572990894318,0.0,5.243346201666554e-09,-7.37311632255042
1619752754.4306917,13.442250360687972,-3.0797291683709616,-6.293327450752258,0.0,4.5895576672450034e-08,-7.216260551208259
1619752754.4840646,13.501739032622876,-3.111449515642226,-6.202925205230713,0.0,9.164214154200323e-08,-7.079629185808003
1619752754.5360074,13.546240764914751,-3.1436109316909313,-6.113168776035309,0.0,-6.020069120982185e-08,-6.9198125165903575
1619752754.5840995,13.577508853369356,-3.168533530336023,-6.020486503839493,0.0,4.8577785460857115e-08,-6.770635088437199
1619752754.6349258,13.559169917458892,-3.468130119082332,-5.947978615760803,0.0,-2.2351741790771484e-08,-6.626394551302791
1619752754.6821938,13.568566895138025,-3.478985215770006,-5.843654185533524,0.0,-4.112720464188868e-08,-6.525785091382266
1619752754.7326376,13.466361502364874,-4.240665349167585,-5.7396518886089325,0.0,-4.470348358154297e-08,-6.428418229655028
1619752754.7867908,13.459067029794456,-4.229879415773153,-5.649371474981308,0.0,7.450580608026058e-08,-6.343125693062544
1619752754.831276,13.435829343382121,-4.229899477764368,-5.527980372309685,0.0,-4.231929784381805e-08,-6.011817336140872
1619752754.8842013,13.425270582535267,-4.230637641029357,-5.450200304389,0.0,-2.3841857599293803e-08,-6.021537659609319
1619752754.9357743,13.355823892593385,-4.451171692574024,-5.353805899620056,0.0,-2.8610229518832853e-08,-5.906007575159074
1619752754.9805,13.32694145306468,-4.433214608849288,-5.25259717553854,0.0,1.7881393366003806e-08,-5.812501977866888
1619752755.034452,13.310401605719328,-4.320088580740691,-5.169964786618948,0.0,2.086162576020456e-09,-5.703814500011205
1619752755.0849783,13.275143499100208,-4.275256183843613,-5.089221373200417,0.0,1.1920929132713809e-08,-5.641476749489308
1619752755.1331475,13.237540752625465,-4.265206980714797,-4.9987778551876545,0.0,3.3080578054622833e-08,-5.50532515557766
1619752755.1805377,13.177777092325687,-4.240559897272587,-4.911078102886677,0.0,5.364418020903372e-09,-5.240777408325672
1619752755.2342572,13.155595189274552,-4.222960726214648,-4.8227982968091965,0.0,5.6624412603234475e-08,-5.2865680248487
1619752755.2816556,13.113630645592213,-4.198958745372295,-4.737414613366127,0.0,4.053115854052436e-08,-5.176319531033039
1619752755.3412688,13.07093986625731,-4.172000697559715,-4.6536717265844345,0.0,-1.4603137810098588e-08,-5.0724000000506635
1619752755.3811688,13.027814045171738,-4.141364477534294,-4.567686706781387,0.0,-1.6689300497141346e-08,-4.974117723417283
1619752755.4388728,12.925963867654799,-4.346119857282639,-4.485759347677231,0.0,-4.05311582629686e-08,-4.69050610610962
1619752755.4814794,12.904354279264808,-4.350640000920892,-4.387013733386993,0.0,-6.765127180674568e-08,-4.677689773475528
1619752755.5328135,12.839056670417786,-4.479456571364403,-4.3024066388607025,0.0,-1.6689300497141346e-08,-4.549685630321504
1619752755.580189,12.796450332678258,-4.457357086850703,-4.226633012294769,0.0,-5.811452596926614e-09,-4.427680120145977
1619752755.6333194,12.76080316672951,-4.397638650325238,-4.1481052339077,0.0,5.81145287448237e-09,-4.278489923184217
1619752755.6837163,12.719425436290205,-4.384983537837565,-4.062366098165512,0.0,-2.0116567467365343e-08,-4.14031734512061
1619752755.7330794,12.678826825502366,-4.378064900962859,-3.9780812561511993,0.0,-8.0987811068578e-08,-3.9950239294813574
1619752755.7810378,12.619575873411895,-4.36620132043004,-3.9008809030056,0.0,-3.278255450434031e-08,-3.702678432534934
1619752755.8314087,12.637240593654365,-4.146496164191515,-3.8203892707824707,0.0,-5.4165720908549986e-08,-3.723485744656176
1619752755.8854575,12.59943932408273,-4.141502340503335,-3.7394548058509827,0.0,2.0563602487477795e-08,-3.569184710766673
1619752755.9321368,12.562677706092597,-4.097307586179971,-3.64810049533844,0.0,-8.9406965719796e-09,-3.4878030584323403
1619752755.9839172,12.526991069440543,-4.039319559617341,-3.5761704444885254,0.0,8.657574651627087e-08,-3.4474675466808677
1619752756.0364618,12.44803980042547,-4.212317060154975,-3.501982271671295,0.0,1.2069940602543738e-08,-3.3968999985453485
1619752756.0843563,12.414568622950316,-4.182942954326869,-3.4367661476135254,0.0,6.973743443827729e-08,-3.290066297487021
1619752756.1315851,12.365186748074889,-4.1410248988300555,-3.3617923259735107,0.0,-4.142522802563775e-08,-3.1218221660774947
1619752756.1865728,12.349719290024638,-4.065009676941037,-3.269891679286957,0.0,-6.854534106981447e-09,-3.245782458595633
1619752756.2303035,12.266114777017833,-4.174346475385427,-3.1925861835479736,0.0,1.3709068380496348e-08,-3.126009151564836
1619752756.28876,12.251767039389016,-4.08208917499125,-3.120781123638153,0.0,3.725290309564144e-08,-3.270054760610461
1619752756.330017,12.223899690254033,-4.027255264341533,-3.049473822116852,0.0,-9.089708319365286e-09,-3.226020951680243
1619752756.3838193,12.197124518449606,-3.938102135617435,-2.982698440551758,0.0,-9.089708263854135e-09,-3.2409547913447025
1619752756.4334943,12.171421124808193,-3.8781833109885455,-2.916881024837494,0.0,-2.115964875537557e-08,-3.212607774271369
1619752756.4840796,12.154191794029474,-3.757539894613028,-2.871174931526184,0.0,-1.0132789496353212e-08,-3.158914643012286
1619752756.5308034,12.130569895197151,-3.7260587528693674,-2.8144290447235107,0.0,1.370906849151865e-08,-3.0748277303421494
1619752756.5871093,12.107951011631489,-3.6929160905003546,-2.7549808621406555,0.0,-1.5497207572767735e-08,-3.013229639256001
1619752756.6300068,12.075266234709025,-3.672915043905974,-2.6783998608589172,0.0,1.847743991145734e-08,-2.963692056599856
1619752756.6917188,12.054575746828318,-3.6124181936919695,-2.604921340942383,0.0,1.3709068324985196e-08,-2.9499073320877556
1619752756.7340977,12.032112343694568,-3.602314072969556,-2.542042851448059,0.0,-1.4007091431178509e-08,-2.887591839656234
1619752756.786088,12.004125191597343,-3.572018948941827,-2.4805362224578857,0.0,-2.9504299170479698e-08,-2.7065151526278255
1619752756.8319535,11.996386784250737,-3.512407060134411,-2.4171907901763916,0.0,-5.9604643443122995e-09,-2.742179114248752
1619752756.883233,11.979209926537276,-3.4732973883783824,-2.349467635154724,0.0,7.748603758628292e-09,-2.6894643880975257
1619752756.9297297,11.962838583059312,-3.4335420239639283,-2.2883929014205933,0.0,-4.76837147544984e-09,-2.640304280920029
1619752756.9826286,11.947242998006343,-3.415257457735539,-2.223140239715576,0.0,2.5033950912245473e-08,-2.5399368656039245
1619752757.0338416,11.925241231405735,-3.370091677749157,-2.1598559617996216,0.0,-2.5033950773467595e-08,-2.383358360426426
1619752757.0902627,11.918263873167039,-3.3409938668441774,-2.0971606969833374,0.0,-2.3841857821338408e-08,-2.4264334899234776
1619752757.133252,11.904823772052527,-3.3064541143810753,-2.0344027280807495,0.0,1.9669532863586525e-08,-2.3772874323165425
1619752757.1861727,11.884866474086046,-3.2838348093450063,-1.9727344512939453,0.0,-7.748603786383867e-09,-2.247397600046397
1619752757.230527,11.878872153416872,-3.2612423098266126,-1.9205249547958374,0.0,-2.2053718490289143e-08,-2.2783848981916908
1619752757.2820764,11.821009661813974,-3.3515698236835,-1.8448398113250732,0.0,1.3709068436007499e-08,-2.215140872746706
1619752757.3376644,11.810056320375205,-3.3081696675121783,-1.7780063152313232,0.0,-4.17232504101861e-09,-2.17321470315814
1619752757.3819048,11.832371323779821,-3.176788913279772,-1.7146244049072266,0.0,-2.8014183001134896e-08,-2.064538402861357
1619752757.4333975,11.82750468932271,-3.125371715677977,-1.704793095588684,0.0,-7.748603758628292e-09,-2.1401451965582368
1619752757.4958284,11.818149647948742,-3.098548074777127,-1.6534411907196045,0.0,-1.7881393310492655e-08,-2.0704250564932827
1619752757.5361047,11.805020339109898,-3.070157154033184,-1.625777006149292,0.0,-1.5497207517256584e-08,-1.9018775591492658
1619752757.5853758,11.772500609997511,-3.120173636895418,-1.5636799335479736,0.0,-3.039836879437097e-08,-1.949410011934042
1619752757.6328175,11.764536336661578,-3.0599129786956314,-1.5219255685806274,0.0,3.0398368933148845e-08,-1.9420735745775703
1619752757.6860855,11.756992606494428,-3.0379848008275037,-1.467396855354309,0.0,-1.7881393366003806e-08,-1.8746175111651424
1619752757.7328074,11.749849778975248,-3.014975972844362,-1.4137333631515503,0.0,-6.5565107787435295e-09,-1.8153653102529053
1619752757.7830694,11.748552071602344,-2.9753081056857105,-1.3617267608642578,0.0,-2.02655791314843e-08,-1.7703589857792856
1619752757.8346457,11.742153982286453,-2.939435073747635,-1.310672402381897,0.0,-1.43051146761497e-08,-1.7249699463462829
1619752757.8802056,11.73264788591981,-2.8745088224732873,-1.2830004692077637,0.0,-5.364418020903372e-09,-1.6820455198395254
